##TITLE= SPLICCO spectrum (File: \\phypcs\vansoelen.1$\Roaming Profile\My Documents\Senior Lab\Fourier Optics\DoubleSlitFarField.jdx)
##JCAMP-DX= 4.24
##DATE= 25.2.2016
##TIME= 15:4:46
##DATA TYPE= INFRARED SPECTRUM
##OWNER= Public Domain
##RESOLUTION= 2.0
##DELTAX= 1.00000000
##XUNITS= ARBITRARY UNITS
##YUNITS= ARBITRARY UNITS
##APPLICATION= SPLICCO
$$SHOW_VERTICAL_FLIPPED= 0
$$SHOW_HORIZONTAL_FLIPPED= 0
##XFACTOR= 1.0
##YFACTOR= 0.000001
##FIRSTX= 1.000
##LASTX= 2048.000
##NPOINTS= 2048
##FIRSTY= 0.417563
##XYDATA= (X++(Y..Y))
1.000  417563 441245 456046 430792 431677 454795 464942 426382
9.000  401358 416479 425940 448233 447669 442252 448111 477668
17.000  497383 471305 430533 452780 491584 513450 475272 440802
25.000  447104 480003 500541 476401 457312 452140 441443 437399
33.000  426688 455680 486671 482139 453528 459021 452216 446280
41.000  445593 467963 481010 503242 478049 464499 492469 509102
49.000  517296 492912 495628 520134 523476 503440 493156 504753
57.000  517174 513008 526863 528450 519996 555474 566689 559822
65.000  529198 519310 519493 519569 518486 528130 520378 486488
73.000  501487 510994 506584 508918 534996 541618 526619 508659
81.000  527504 527244 525993 502296 516853 515907 522026 529259
89.000  530708 497261 472434 480689 525856 538338 522270 506645
97.000  485160 495750 500663 509040 511680 516533 519310 494926
105.000  496635 527183 513069 480811 492469 546150 564858 534309
113.000  515724 525795 545326 525291 502113 489890 521950 560143
121.000  553276 546715 564293 563668 515968 508354 529839 522270
129.000  519050 529015 550942 552895 523338 495689 530846 591012
137.000  594354 559884 545082 557305 554726 530708 506904 505195
145.000  525291 558693 566445 539971 506263 502555 514396 523155
153.000  512260 516411 526619 550560 555657 529198 480369 460593
161.000  471869 494483 506202 515846 493232 499458 484092 490455
169.000  484718 458640 459327 518364 530769 496314 482825 481696
177.000  474067 468711 465629 466834 451209 466132 474265 468970
185.000  480628 466132 440115 423605 440115 431174 430228 438162
193.000  446036 458442 450446 431357 423544 436392 444464 449820
201.000  442816 442374 436713 426062 416296 434500 482261 493232
209.000  465247 437598 428839 439993 441626 447806 437903 404013
217.000  400793 417685 437155 461219 447104 437094 441809 433936
225.000  427954 399603 383093 407736 416739 421530 438284 437537
233.000  413839 405401 387823 382406 373830 410254 436270 439551
241.000  422842 411947 395880 393179 384039 390905 404333 407217
249.000  400350 394995 401434 390341 367971 399343 438986 415289
257.000  384420 363317 366842 370183 377798 389578 393804 390661
265.000  382711 377676 383413 369863 373586 386938 385809 376165
273.000  378240 414969 460837 510734 539604 514518 441443 401495
281.000  372823 371816 363179 365453 386495 408804 391790 367284
289.000  355931 395635 423865 417059 393865 400549 413076 393926
297.000  383413 406286 402883 370244 386999 406210 407034 358022
305.000  362371 391531 400289 386938 394628 382772 353856 376546
313.000  397268 391668 387563 393743 408041 408163 381963 374898
321.000  367971 360158 378240 409430 394567 383474 361669 368093
329.000  381963 391973 382848 393743 445410 456427 435004 381017
337.000  377172 420386 463996 441809 407095 383154 397589 428778
345.000  436591 418570 412893 412893 419073 416800 396826 417746
353.000  432928 453223 461158 461478 441748 412390 432486 470740
361.000  460532 454917 459388 479301 489005 458197 419821 413336
369.000  433691 454093 458075 446356 436392 464377 472755 465247
377.000  437094 428397 438284 459266 455298 430090 417746 452079
385.000  495246 506904 474204 465506 505394 588937 626047 548790
393.000  456046 435706 486427 514579 483207 459327 494041 532860
401.000  531975 493537 465186 491645 563164 600015 577645 508094
409.000  489692 544319 547844 516594 490959 496253 541054 561455
417.000  546532 531288 542748 564232 583947 584588 544640 508476
425.000  560891 616144 607019 571099 527565 554345 614068 610345
433.000  570351 547096 562600 596810 620111 569085 503746 534493
441.000  609979 653192 623590 543694 542626 617151 641916 591317
449.000  536827 535317 613626 636057 613244 564675 576958 629449
457.000  643930 643869 603112 566124 603295 682810 674372 609536
465.000  594476 656153 699122 713176 666300 642236 683253 732265
473.000  732463 661127 604745 663782 739253 734981 668253 628564
481.000  663462 754375 754879 679972 627176 669642 758358 783871
489.000  721049 667933 689738 734416 786205 764843 697550 683497
497.000  738002 779644 752742 674616 680735 741969 777508 771450
505.000  702845 678080 745433 804791 785198 723064 712489 773220
513.000  823315 795712 711284 671473 747570 834393 821286 740779
521.000  729564 795971 840756 808560 716197 658045 719218 804409
529.000  843213 735225 651682 711848 788967 799176 745815 676951
537.000  689356 746822 772396 727977 692378 714122 791485 801693
545.000  772655 732326 701518 754879 791119 749843 677454 676508
553.000  739513 796780 787899 724834 693461 730571 794964 782223
561.000  682932 649729 723201 778194 784374 697550 670389 738506
569.000  804974 816128 741466 690928 738384 787716 787777 755016
577.000  729365 737239 794888 795025 713237 671091 747264 857206
585.000  864133 763393 662211 672220 743099 773159 706248 605371
593.000  696604 832944 837415 717647 600152 630899 751232 788586
601.000  724071 629068 627740 708323 757274 725276 628061 615777
609.000  702784 751735 719859 637384 627924 694590 750164 726283
617.000  681162 651621 719478 780148 775432 702906 636820 672281
625.000  757030 747447 641535 565117 611795 704539 696223 620431
633.000  577523 626169 692256 683817 617853 561089 595162 667811
641.000  676127 623834 542748 550942 641916 680659 630380 597695
649.000  623331 673990 665110 610666 549431 551567 596368 627237
657.000  601159 538719 545891 602288 629068 602731 519127 490455
665.000  539528 589120 598001 568200 587487 610605 606378 578408
673.000  537834 487495 508278 555153 557045 504875 523094 548989
681.000  571221 571862 562844 557686 571419 582574 581048 551888
689.000  496696 463675 569146 728679 796398 696421 544319 479865
697.000  527946 533165 467261 448813 492973 525291 486732 424109
705.000  411383 442572 498008 512443 432608 400167 456870 495872
713.000  467338 426321 430029 486167 495689 462851 417685 424872
721.000  435889 437033 504814 613382 580041 440177 433752 543816
729.000  550682 443457 393865 417242 421469 393865 434378 511375
737.000  505821 437659 514335 666361 691630 557366 410376 442130
745.000  493598 431799 405783 415732 404013 390722 394628 391668
753.000  402380 430350 417624 393682 428137 493034 513572 468024
761.000  427267 386053 371755 377233 393545 455542 536705 537392
769.000  475776 412146 379507 398657 407736 411261 397268 392355
777.000  405264 413214 429144 437598 432181 457434 519050 535500
785.000  488746 410696 393804 403570 387945 428839 464118 414465
793.000  376989 427191 434134 421972 429968 434821 426626 502235
801.000  532661 482642 405462 388952 423163 480689 507972 473762
809.000  412451 450385 496498 464942 426886 433310 474448 474143
817.000  478736 450949 444525 466330 484275 482764 482459 472755
825.000  468909 497886 530647 513633 468467 460212 510109 542122
833.000  508216 476905 484412 555352 594796 578728 508918 495872
841.000  571541 616845 582757 507972 518867 597177 626794 583199
849.000  530266 531853 582574 622507 596993 589181 630014 695536
857.000  797161 875349 799237 588174 551186 656351 652948 571099
865.000  536125 573815 614572 639520 616525 577019 591256 664103
873.000  708766 713115 659678 614953 664972 770763 803143 695780
881.000  616968 664026 745815 782101 816372 803646 775738 744869
889.000  717204 682932 675181 692515 760234 812222 793636 749095
897.000  756023 768184 729686 707316 690241 703227 758419 781719
905.000  729060 684138 741969 811596 808499 733394 677515 707637
913.000  804791 871061 814419 759929 771770 812848 799557 759166
921.000  731822 775936 828854 849652 816510 746059 736675 792431
929.000  849713 824444 740459 713740 787396 870191 869611 794522
937.000  804409 847821 911131 927962 906660 853360 854062 929533
945.000  966765 890409 800442 830304 854367 847440 802838 763271
953.000  816571 881589 881086 802578 812161 905088 954741 951277
961.000  888136 849774 872770 904966 920027 876478 828290 818326
969.000  869871 919768 882536 807812 830869 902891 920897 889524
977.000  863126 849454 857465 885740 888776 857831 845487 891355
985.000  944716 904020 804592 806363 922423 969985 953292 856763
993.000  857084 889784 893369 882276 851972 806363 874341 894575
1001.000  871885 806988 806805 829541 897459 895201 857587 834531
1009.000  873212 893812 891477 846051 810513 834149 881773 880704
1017.000  840192 809323 882917 961547 954039 859922 821225 933257
1025.000  970870 955046 899351 861554 879453 920897 907988 873517
1033.000  808758 823117 909178 945281 912520 860791 870557 922987
1041.000  921980 861234 859723 900053 910505 927260 940428 897779
1049.000  814236 801388 902128 911894 824124 773281 804974 831189
1057.000  844724 815808 765590 777004 868665 923994 860288 730189
1065.000  721492 804974 825452 800381 759426 734477 772899 807186
1073.000  779644 736232 702281 730434 790615 817074 785000 774227
1081.000  807934 824322 786129 736934 725719 729304 751674 742473
1089.000  709330 664530 667490 754192 802517 769939 706630 765285
1097.000  922926 969726 882475 696726 647150 756969 798489 700694
1105.000  718089 826077 895201 855939 735286 642740 670969 733775
1113.000  768932 790981 782864 704097 647959 669825 649988 568764
1121.000  611734 666178 614633 664347 714244 796337 728801 649164
1129.000  663080 719798 680231 610345 612298 618921 582940 536827
1137.000  575326 601342 591134 539528 523537 572228 635370 625665
1145.000  595742 623651 705302 709834 628122 590753 604242 679789
1153.000  757213 780971 697871 574319 519813 653009 805355 833203
1161.000  714686 616845 652246 682932 608148 513893 477912 503181
1169.000  500465 478477 476844 508033 537514 509544 498588 486045
1177.000  465751 447486 449118 457434 456183 459021 443457 444327
1185.000  463859 497383 495368 461600 475776 488944 471488 474830
1193.000  492652 503364 466514 481956 569970 587167 516029 449942
1201.000  472755 512321 504448 440680 416174 445853 463172 450888
1209.000  503807 632410 714564 691447 560204 429144 398336 445975
1217.000  463996 447669 433310 462790 426825 411322 522713 582635
1225.000  546395 452903 395574 435141 456366 427832 439673 497505
1233.000  520134 473884 418310 408865 418936 434637 426504 398214
1241.000  390020 418127 431601 446662 477851 599206 610605 512886
1249.000  520073 604364 551628 445151 475577 533104 487373 430228
1257.000  441687 453345 447867 451132 463431 485862 500099 480506
1265.000  444525 441062 466895 488441 473884 468787 454352 475715
1273.000  501487 521766 519813 535759 560585 577904 593148 585091
1281.000  540230 499900 509803 526741 509483 509864 520256 572106
1289.000  599893 591897 564614 579674 613443 624658 581628 559060
1297.000  532219 582879 637323 621377 575448 570656 615960 645441
1305.000  633600 627801 669825 666926 642801 601342 575005 574502
1313.000  658426 745693 768245 723765 665293 636240 652567 719356
1321.000  724513 672480 606820 607324 609033 600457 592965 645578
1329.000  702220 742793 752681 702281 643427 703410 782665 734660
1337.000  627924 647089 712108 702525 719920 801068 821866 809262
1345.000  778957 725215 645700 625665 653574 689799 748455 785946
1353.000  756466 739696 749660 732265 706309 709590 741283 756908
1361.000  746059 811718 894941 873090 811902 755764 736995 696482
1369.000  703669 741649 800305 782040 724834 726787 801953 850461
1377.000  810147 739955 714747 750102 771007 756023 765667 802578
1385.000  858091 869489 817517 742153 713939 730189 773479 770641
1393.000  759044 755260 832883 892042 902952 855130 767040 782864
1401.000  902128 906660 846173 736171 733653 793575 812664 764721
1409.000  728984 755077 793759 812726 807553 814557 827145 853681
1417.000  877805 907042 886884 846494 865705 888578 838056 786129
1425.000  780346 831128 866208 848325 798611 784115 841901 884489
1433.000  874464 816006 781353 796780 817639 814557 777950 790737
1441.000  851606 916624 922850 906095 864194 834653 853040 897840
1449.000  904707 878690 867917 875913 845166 821225 849835 890592
1457.000  892744 886060 887571 834836 786449 805737 841641 850965
1465.000  848706 811093 827283 916685 943327 834592 739696 766536
1473.000  802899 784756 754757 803021 934447 972823 946791 824124
1481.000  740138 787655 808255 806240 778820 718532 755260 808438
1489.000  813473 773983 749965 802456 839444 846250 809201 755260
1497.000  764141 807370 810208 748210 718532 756649 787014 800885
1505.000  756969 715007 712291 756649 783672 772335 801693 820416
1513.000  825192 832822 766292 682490 698817 804089 857389 847943
1521.000  804654 763393 751415 769436 742915 686518 694590 725581
1529.000  729488 724269 702723 647714 669138 785000 850965 829983
1537.000  742290 691630 730754 758922 738124 702220 734477 760555
1545.000  714747 622949 580300 612558 658609 669077 669642 667811
1553.000  683756 687968 662958 614755 575692 570412 593713 610040
1561.000  592339 561394 577645 649042 689677 667689 610421 586160
1569.000  604867 610223 600076 619546 665918 694834 700831 655207
1577.000  567757 549172 628305 699687 688349 626916 562020 526741
1585.000  529701 557244 564110 580804 587853 591699 586785 585534
1593.000  590508 603616 569146 515526 528816 550743 562401 546715
1601.000  559945 538963 500602 483085 517921 540413 498588 456046
1609.000  472312 540733 610162 695536 773281 767925 667185 575066
1617.000  495048 433875 517357 627618 629633 563408 522896 522087
1625.000  530342 532478 498954 447989 438223 466392 463553 454917
1633.000  449256 460212 479362 513511 504188 461036 420386 443900
1641.000  471427 452460 426565 439490 473563 498893 576333 632715
1649.000  572365 457755 442191 481956 523277 517479 484977 453345
1657.000  450263 450766 482017 496757 485221 465003 451956 454352
1665.000  465690 476340 446601 423666 411322 431097 495048 611367
1673.000  610605 504127 434439 517921 536064 462165 454032 497581
1681.000  523277 495628 461036 464499 480872 477973 436957 412008
1689.000  437903 484473 469916 433432 412268 430228 488883 539528
1697.000  561516 522652 483268 451010 424994 410940 401174 418066
1705.000  443762 483024 511253 557991 612802 582253 516472 456565
1713.000  415228 457755 477286 487998 485603 453086 432364 438666
1721.000  436270 429846 428336 448310 484214 521766 523476 492469
1729.000  478233 499275 513069 539467 559563 549874 502494 483146
1737.000  473502 488242 510811 509422 511680 502861 509224 512886
1745.000  532097 554909 544380 507209 466193 467963 507911 526802
1753.000  490836 458640 483390 542122 578728 560265 527183 508720
1761.000  519188 520317 506645 492591 533104 611230 614831 528068
1769.000  494361 575509 652002 632272 548043 524040 555794 623773
1777.000  685008 703593 617227 535500 537773 583138 574883 534554
1785.000  529396 585336 598504 568642 534813 533806 560830 564415
1793.000  546593 530968 548867 632410 715129 685069 568520 499214
1801.000  575509 690058 715190 660502 596047 564110 533928 517860
1809.000  518486 528755 552895 582375 592965 574258 555092 600900
1817.000  663782 669520 606576 531975 535194 594979 614450 574761
1825.000  539223 553841 588799 583581 564553 559761 571725 613183
1833.000  615518 569207 539528 539467 587045 642420 617029 590249
1841.000  697108 794079 758159 658304 611367 653757 709391 727290
1849.000  690241 646387 658106 699061 693324 633539 580865 580041
1857.000  580422 608148 639078 635370 609094 600778 609475 646082
1865.000  714686 786388 801632 770504 719096 658487 620614 575127
1873.000  575509 606012 615274 620431 659311 765789 821164 751354
1881.000  675822 640588 658808 661203 622262 594796 618982 649042
1889.000  630319 598260 590249 586037 611673 644129 656290 664789
1897.000  693461 765529 763393 669703 586984 561776 580483 608529
1905.000  642099 632852 594659 581048 590691 612802 651438 669382
1913.000  651499 616205 611169 640787 655527 640146 591317 576134
1921.000  573678 578225 577279 593713 606439 634164 645578 615457
1929.000  566750 560265 568581 549675 553459 572991 592019 563286
1937.000  523094 520637 570092 599389 660624 766475 786266 678461
1945.000  561516 522209 512886 506401 536766 564858 547035 534111
1953.000  535942 528450 525230 538399 522148 524040 529579 564171
1961.000  623147 675120 628946 524986 527122 548424 505638 483207
1969.000  504188 519691 515342 512062 507774 533302 536263 548226
1977.000  573495 590066 579232 550438 553521 535622 519874 531151
1985.000  556359 546715 520820 489631 481818 512626 529640 514641
1993.000  483909 468406 476279 502357 501853 529457 529518 497322
2001.000  485542 475013 465812 476462 480064 510612 516975 523155
2009.000  545265 541863 568078 563347 521766 498008 501045 513450
2017.000  524910 524544 497383 473197 502296 550057 544441 498084
2025.000  464744 477347 483207 455680 446356 452658 466636 488181
2033.000  509224 517097 480933 457877 456244 454673 498893 578530
2041.000  593530 516670 466895 465247 484596 459708 446982 455359
##END=
