##TITLE= SPLICCO spectrum (File: \\phypcs\vansoelen.1$\Roaming Profile\My Documents\Senior Lab\Fourier Optics\Activity 2.3\SingleSlitC_2_2_Lens.jdx)
##JCAMP-DX= 4.24
##DATE= 3.3.2016
##TIME= 12:0:13
##DATA TYPE= INFRARED SPECTRUM
##OWNER= Public Domain
##RESOLUTION= 2.0
##DELTAX= 1.00000000
##XUNITS= ARBITRARY UNITS
##YUNITS= ARBITRARY UNITS
##APPLICATION= SPLICCO
$$SHOW_VERTICAL_FLIPPED= 0
$$SHOW_HORIZONTAL_FLIPPED= 0
##XFACTOR= 1.0
##YFACTOR= 0.000001
##FIRSTX= 1.000
##LASTX= 2048.000
##NPOINTS= 2048
##FIRSTY= -0.664210
##XYDATA= (X++(Y..Y))
1.000  -664209 -676492 -693308 -648080 -655771 -708506 -717447 -662897
9.000  -635857 -631264 -634408 -632836 -685694 -724314 -743098 -808238
17.000  -839428 -805523 -731242 -673654 -644234 -652429 -654504 -633081
25.000  -671900 -721171 -691431 -670694 -681040 -648202 -626656 -664529
33.000  -696726 -686334 -676309 -656594 -650476 -634591 -670008 -681849
41.000  -705042 -784816 -819973 -767665 -725200 -726450 -709391 -655206
49.000  -628427 -627862 -653818 -644677 -627618 -631448 -636742 -660944
57.000  -696527 -749766 -763942 -757716 -700312 -615014 -579796 -602731
65.000  -611611 -585640 -591637 -630120 -654459 -674554 -749782 -791805
73.000  -775356 -689982 -638818 -625406 -642281 -610787 -591119 -617394
81.000  -659173 -643930 -607949 -610482 -601082 -610344 -588097 -574624
89.000  -580605 -595986 -563286 -572915 -595483 -604729 -599190 -595666
97.000  -639260 -709574 -748393 -762187 -694956 -598382 -568306 -618416
105.000  -642160 -674737 -672541 -626672 -612679 -634103 -604989 -572410
113.000  -630944 -671716 -675928 -615639 -602532 -602654 -567695 -560952
121.000  -567314 -567757 -562706 -582802 -574929 -624581 -679025 -653192
129.000  -597238 -579918 -591500 -564232 -556664 -588540 -595986 -568322
137.000  -545647 -553459 -582741 -578087 -572410 -616845 -622567 -615197
145.000  -632211 -619531 -633157 -606881 -570580 -558418 -572548 -578010
153.000  -587227 -578850 -574502 -568627 -547462 -556541 -584130 -565483
161.000  -567177 -565864 -575630 -591500 -603738 -608270 -603905 -569832
169.000  -559807 -556358 -531013 -549492 -539345 -556282 -578408 -554008
177.000  -544060 -570397 -546516 -524147 -530907 -520880 -540535 -543189
185.000  -598565 -599953 -616128 -650415 -638879 -599435 -590111 -562081
193.000  -540092 -518425 -514457 -524528 -553200 -547721 -554405 -547142
201.000  -522331 -529136 -527931 -517860 -532462 -525733 -515449 -520805
209.000  -539223 -564781 -560631 -528434 -563896 -553139 -531639 -522895
217.000  -523536 -527060 -547279 -546394 -536384 -515709 -519431 -504309
225.000  -536705 -559440 -554085 -530525 -539085 -572411 -563164 -508658
233.000  -509848 -522316 -550620 -559242 -539528 -552879 -542427 -488929
241.000  -488501 -516410 -521827 -506644 -506263 -524406 -539909 -516593
249.000  -490760 -493659 -510933 -519310 -529823 -547706 -572975 -569770
257.000  -570915 -547416 -508155 -515205 -503486 -506202 -509346 -514518
265.000  -490821 -491400 -498008 -544121 -567497 -542228 -499519 -493400
273.000  -487800 -520057 -521888 -519935 -500281 -492285 -496192 -498191
281.000  -494223 -494025 -490058 -495673 -483008 -479102 -479986 -545265
289.000  -545448 -507209 -492712 -496253 -503684 -488806 -505561 -544120
297.000  -554832 -586464 -611092 -589745 -562584 -515266 -495353 -509925
305.000  -533592 -512870 -505057 -502922 -500967 -484137 -483329 -475257
313.000  -479605 -484092 -501594 -533729 -528068 -499442 -524849 -524849
321.000  -506827 -483771 -457877 -472358 -481879 -526665 -566749 -575691
329.000  -565987 -559624 -560249 -572030 -550423 -527367 -502783 -481757
337.000  -478293 -498451 -499274 -500586 -498190 -510795 -539085 -502219
345.000  -462973 -476386 -514961 -510917 -514396 -539726 -532661 -508964
353.000  -469779 -465552 -492453 -513755 -555030 -547218 -507972 -484214
361.000  -473807 -494345 -512503 -549033 -552009 -473746 -449057 -510230
369.000  -497992 -457434 -457800 -459708 -477149 -487723 -560127 -615136
377.000  -547904 -483069 -461401 -471473 -473242 -478461 -452384 -468710
385.000  -476020 -487860 -468711 -484091 -491843 -496359 -486167 -479666
393.000  -495474 -482444 -466742 -449240 -461585 -475821 -486731 -481314
401.000  -464300 -452078 -460196 -471671 -485159 -498313 -530708 -565422
409.000  -563027 -503104 -487738 -552254 -550300 -498313 -466452 -470099
417.000  -464300 -462027 -461966 -465125 -454779 -486731 -508338 -488487
425.000  -469581 -467642 -472739 -493536 -452780 -444525 -462271 -454291
433.000  -465491 -467321 -485281 -491828 -478659 -469535 -458823 -467322
441.000  -457617 -458258 -467963 -461523 -450384 -447851 -471029 -502921
449.000  -512611 -485602 -475272 -473884 -469275 -443381 -447470 42252
457.000  40680 42313 43579 39230 38910 39673 40802 40482
465.000  39536 38223 39673 41062 40054 38971 42191 39169
473.000  38910 41367 40421 39414 40299 42191 41123 39475
481.000  41748 38788 41565 39978 39734 41931 40177 38529
489.000  40360 39612 42069 38971 42374 41489 41428 41367
497.000  41367 37720 42191 41306 39414 42694 39291 41367
505.000  42572 39414 40802 41687 39108 39795 40558 44022
513.000  40299 39734 40680 39856 40741 39536 41123 42313
521.000  40558 40238 40054 41062 40985 40924 41809 42435
529.000  41062 44083 41184 43076 40482 37903 38406 39353
537.000  43701 41062 38406 39978 40924 42191 40680 40558
545.000  42877 40299 40741 41687 40238 41870 42069 40299
553.000  40421 42191 38529 39108 40054 41687 39230 40863
561.000  41184 41245 39917 40558 41306 42130 42313 39978
569.000  42069 41489 40054 40619 40177 42130 41489 41931
577.000  41489 41931 40421 40360 42511 39612 41184 43015
585.000  43198 42069 42374 39795 40360 43442 41870 42313
593.000  41809 45029 42694 41489 41428 40421 40482 43259
601.000  40619 42755 42572 43762 41809 41489 41931 41626
609.000  42877 41931 43640 42511 41489 40177 42069 41367
617.000  41748 39734 41809 41687 40985 40238 44083 43381
625.000  44831 42435 43198 39673 43259 41748 44205 41687
633.000  43823 40802 40619 41245 41489 40558 42069 40619
641.000  44205 43137 41123 41748 42130 41809 40054 43259
649.000  40558 42374 41870 43961 43823 38971 42252 42313
657.000  41809 41931 42816 41489 42069 40238 43015 43762
665.000  41123 42130 39353 43137 41367 40680 41184 40985
673.000  44083 40924 41489 41428 43015 43442 43579 37781
681.000  42313 42816 41626 44205 40558 41931 43320 39734
689.000  41687 41748 43198 40924 40482 40863 41428 42191
697.000  42511 40863 39291 40054 44205 39414 40238 42694
705.000  43015 40680 42694 40985 42252 42008 39734 41809
713.000  41428 42572 41809 42816 43137 42313 42511 42252
721.000  41931 42130 41687 44464 39917 41245 43259 42008
729.000  44327 41809 40299 42938 44022 42694 41123 41565
737.000  41748 42191 39612 41931 41870 40421 42816 41626
745.000  40360 42877 43442 43076 43823 41367 42252 41931
753.000  43137 43015 42069 40054 40299 42816 43381 42374
761.000  40924 42130 44083 45090 40360 42374 41489 42694
769.000  41809 42816 40238 41184 41565 42069 44586 42069
777.000  40802 42938 42816 42877 44464 40177 41748 40680
785.000  43259 40299 42938 43076 42252 41748 40421 41184
793.000  41367 44327 43518 40924 39475 40802 42252 40360
801.000  43198 42816 41184 45029 40802 43381 42572 40238
809.000  40741 41306 40177 42633 43884 40054 41367 44892
817.000  42008 41931 43015 40985 41748 42252 42252 43640
825.000  40482 40482 42252 41184 40863 41626 40924 42252
833.000  38467 44022 41870 42633 42374 44144 43442 42694
841.000  45716 47547 44769 44647 43701 44769 45212 45975
849.000  46097 44586 46417 47104 45532 49942 47486 48935
857.000  46921 49118 50324 49744 49179 48493 48798 50629
865.000  49881 47867 50751 51392 52277 51392 53208 50385
873.000  50247 49881 55100 52780 52964 54413 57495 59067
881.000  58442 63172 66254 71992 66315 67963 77973 84336
889.000  88303 95933 99839 109422 113633 123903 131410 144579
897.000  155291 168017 185214 200961 221622 238254 249668 264225
905.000  278522 300694 327855 349462 369558 378957 405539 430426
913.000  449897 470054 485236 517128 548683 557946 574959 598016
921.000  607156 633432 657755 687861 693278 703364 726543 726741
929.000  750362 766872 779476 782177 789303 810101 817593 825528
937.000  827801 839459 841779 845120 856900 869565 860685 857038
945.000  854703 849668 846005 848905 841412 837064 828183 823193
953.000  824139 810406 795544 783886 767315 754207 741481 730266
961.000  711116 690516 682627 661585 631723 629526 607537 582452
969.000  558510 543144 496070 492988 454047 493812 405157 337682
977.000  326146 306111 380407 314747 311543 292317 266361 264789
985.000  241474 222323 214633 193713 187670 179598 163530 147981
993.000  138902 133867 122453 108415 102738 99458 99458 88242
1001.000  90257 80308 73441 69352 67963 68833 62912 64240
1009.000  63736 59647 58762 62043 62104 59006 55924 55298
1017.000  56687 53650 54734 55420 55863 55481 53086 52521
1025.000  51132 51636 49439 50629 48996 50949 48737 48432
1033.000  51331 45914 48294 48371 45471 46478 44968 45334
1041.000  44144 43320 44769 42313 41687 44586 43961 40741
1049.000  41245 42130 41809 41184 43701 40482 40802 41687
1057.000  39169 40985 43320 41306 40619 38101 42374 40741
1065.000  39353 41062 40924 39734 42313 39917 38910 41184
1073.000  43076 43701 42511 39536 42374 40421 39536 42008
1081.000  40299 39917 41184 42252 40482 42191 42191 42572
1089.000  43198 41565 41062 42008 41367 40177 41626 43823
1097.000  41626 42938 40177 40299 41428 41931 41367 41870
1105.000  41306 41184 40863 41184 41809 40054 40115 42008
1113.000  41367 41626 41489 40558 40802 41565 39734 42633
1121.000  38605 40115 42694 41626 39795 41870 43579 40985
1129.000  40482 39291 42069 43076 41687 39230 39795 41123
1137.000  39734 41306 40482 40558 40863 41184 41748 42008
1145.000  40360 41489 42069 40924 41565 41489 39978 43381
1153.000  38406 40619 42816 42816 39856 40680 43259 38910
1161.000  39795 40985 43320 39169 40421 40360 40360 41565
1169.000  39734 39917 39795 40680 40863 38849 41245 41367
1177.000  40619 38529 41428 39734 38223 40238 42511 39917
1185.000  40115 41062 43015 42008 40177 40360 41123 40680
1193.000  41245 42755 40924 41870 42130 39856 41809 41184
1201.000  41123 39414 41748 38529 38345 40421 41184 43381
1209.000  40482 40741 40299 38605 41809 38971 42572 38971
1217.000  41184 38910 42130 39734 39108 39612 42191 40238
1225.000  39856 40863 39978 40115 41062 41687 39612 42069
1233.000  40299 39475 40054 39795 40177 39353 42069 42572
1241.000  40619 40802 41306 41565 38971 40558 38666 40177
1249.000  40802 40741 37781 39291 39673 40054 39291 39673
1257.000  39673 40177 39917 38025 42435 40482 38605 41428
1265.000  38101 39353 40360 39353 38666 39856 37460 38345
1273.000  42374 40558 40619 40482 40360 38101 38788 41123
1281.000  38971 37277 38162 37018 39612 38727 40985 38788
1289.000  38467 40482 40985 41245 38788 40802 36392 39856
1297.000  41809 41245 38529 39612 39108 37781 38467 37338
1305.000  40985 40482 39978 41062 38666 38223 40680 39414
1313.000  39917 40802 37781 42252 38223 39291 38727 41428
1321.000  40482 39795 40558 37903 39795 37781 40054 37216
1329.000  39612 40360 38605 38223 42191 39291 39230 37399
1337.000  41062 39353 40238 39734 40299 39917 37277 40299
1345.000  37781 39673 39291 37399 38467 39169 41245 39032
1353.000  38910 40924 41565 42313 40177 41184 38971 39795
1361.000  39612 40619 39230 38162 40177 38406 40054 36774
1369.000  39612 39978 38025 37903 37842 37903 38605 39475
1377.000  37964 36957 38284 37659 39032 35629 36514 38467
1385.000  38910 37964 38345 37338 38345 37582 36575 37399
1393.000  37155 39475 38345 38223 38284 39414 38666 39673
1401.000  38788 38025 36713 37781 39856 35889 39291 35126
1409.000  39475 39414 37338 38223 37155 38910 38727 39353
1417.000  38971 37964 37521 39856 37964 39291 37399 40421
1425.000  38727 36896 38467 38406 38223 38529 37659 37216
1433.000  35950 39734 36835 36011 37338 39108 36652 38971
1441.000  38727 37216 38162 38162 37659 34882 37079 37720
1449.000  38223 37720 37582 38284 38025 38101 39978 36148
1457.000  38345 36331 37659 37216 37079 39169 38605 36331
1465.000  37338 37842 39673 37277 38971 38529 36331 40054
1473.000  38406 37842 37582 36713 36774 38529 35004 38971
1481.000  38849 37277 35629 36652 38529 36514 37903 36575
1489.000  36957 35629 36774 37216 37018 37582 37964 36331
1497.000  36270 37018 36957 37720 37781 36774 37582 37216
1505.000  36453 36835 39414 37521 37155 37521 35706 37399
1513.000  36896 37155 37338 37277 35767 37155 36713 38025
1521.000  36957 36270 35950 35202 36652 35950 39291 36774
1529.000  36331 36713 36392 37521 35889 35828 39353 34760
1537.000  36331 37155 36514 38467 35706 36453 36957 38162
1545.000  38162 37079 36270 36011 37216 36392 35263 39353
1553.000  36209 38223 35385 37964 36392 36072 36392 35004
1561.000  38605 36835 35706 36957 37521 38025 36652 37399
1569.000  36331 37399 37018 37079 38605 36575 37277 38101
1577.000  36209 36072 35568 35767 37216 36896 37277 37720
1585.000  37659 36774 37277 34760 37155 35263 34058 39032
1593.000  34256 38529 37155 34500 37216 36392 34058 35446
1601.000  36514 35385 38025 34439 35950 38971 35767 36209
1609.000  37964 36774 38467 37460 35507 34882 35828 37781
1617.000  36331 35126 36331 38162 37018 36957 37155 37079
1625.000  37720 33615 36774 35065 36514 35950 37659 35385
1633.000  35828 36011 37277 36652 37155 37277 35629 37582
1641.000  39917 34760 37277 39612 35950 36148 38284 36774
1649.000  36011 37460 37964 36453 37018 37964 37079 36148
1657.000  37582 38223 37659 38727 36331 35889 37781 36652
1665.000  37155 35202 37720 37399 38788 35568 36453 36392
1673.000  36392 37582 38284 35004 37460 38162 37720 36148
1681.000  36835 37903 37720 39536 36453 35507 35202 37842
1689.000  38727 36835 34317 36331 34622 35065 36713 36713
1697.000  36453 36713 35828 36270 39230 35065 36148 36209
1705.000  35446 36713 34317 34561 36209 35706 36453 35629
1713.000  38284 38910 37155 35568 36072 35568 36392 36453
1721.000  35950 33997 36575 35385 36331 35828 35385 35324
1729.000  35263 34760 35004 35202 36652 36652 34378 38284
1737.000  36957 36392 35263 38529 36835 35507 33432 35828
1745.000  36896 35950 37964 36072 37338 36331 37903 34821
1753.000  35385 35889 35767 34256 36713 35507 35568 36896
1761.000  36392 35324 35507 33936 32928 34256 35629 35507
1769.000  36072 35004 34699 35126 35446 35889 34882 36453
1777.000  34821 35202 34943 35263 35324 33997 35004 36575
1785.000  35568 36453 34622 36453 37079 36392 36514 36209
1793.000  37659 33371 36011 35385 36514 36072 35004 35324
1801.000  33752 34943 34500 34119 35568 35202 34622 33875
1809.000  35889 36957 35385 36270 35065 34760 34561 35385
1817.000  34058 34500 35324 33615 35126 33493 34943 32806
1825.000  33875 33051 35263 33554 34256 32425 35202 34058
1833.000  33813 34378 33310 33493 32928 31982 35767 36270
1841.000  33997 35767 33051 32043 37842 35263 33493 33554
1849.000  34561 36453 34622 34760 35767 34760 32867 34439
1857.000  34500 33554 35507 32486 33936 34760 33051 33875
1865.000  33875 32928 34821 35629 33997 32425 33493 33432
1873.000  30914 34058 31036 33615 35568 35446 34058 34622
1881.000  31662 34195 32486 33432 34195 33875 34378 33997
1889.000  35004 34317 35950 36148 34821 32043 33875 33112
1897.000  35263 33112 35568 33173 32425 30975 32669 32242
1905.000  33432 32608 32745 33936 32990 33936 32364 32043
1913.000  33813 33432 33875 34119 32867 34622 33310 33371
1921.000  32303 33875 33112 30090 33997 35950 31799 30350
1929.000  32669 33615 33875 33249 35568 31982 31036 32928
1937.000  30716 33371 32608 32806 33051 32669 32547 32242
1945.000  31418 34699 33249 33752 32425 32806 33249 32364
1953.000  32547 32745 32425 32425 31296 31418 33051 31296
1961.000  35004 31723 31097 30975 33676 31723 32486 32547
1969.000  31158 34439 33173 32928 33676 33752 33615 33493
1977.000  31662 31799 31860 33112 33371 31479 32104 34882
1985.000  33554 33173 31601 34058 33051 31799 31601 32303
1993.000  32928 34760 31219 32303 31036 29846 32547 0
2001.000  34256 30853 0 31296 30090 33493 32608 31982
2009.000  32166 32242 30975 33615 0 32486 31662 29709
2017.000  33371 33997 31219 29404 33432 33051 32364 32242
2025.000  30411 33554 33371 31921 31158 32303 32364 32166
2033.000  32364 31357 30350 0 31921 33752 33432 31158
2041.000  29587 32364 0 0 0 30594 31479 31921
##END=
