##TITLE= SPLICCO spectrum (File: \\phypcs\vansoelen.1$\Roaming Profile\My Documents\Senior Lab\Fourier Optics\Activity 2.3\SingleSlitD1_0_Lens.jdx)
##JCAMP-DX= 4.24
##DATE= 3.3.2016
##TIME= 12:32:39
##DATA TYPE= INFRARED SPECTRUM
##OWNER= Public Domain
##RESOLUTION= 2.0
##DELTAX= 1.00000000
##XUNITS= ARBITRARY UNITS
##YUNITS= ARBITRARY UNITS
##APPLICATION= SPLICCO
$$SHOW_VERTICAL_FLIPPED= 0
$$SHOW_HORIZONTAL_FLIPPED= 0
##XFACTOR= 1.0
##YFACTOR= 0.000001
##FIRSTX= 1.000
##LASTX= 2048.000
##NPOINTS= 2048
##FIRSTY= -0.658701
##XYDATA= (X++(Y..Y))
1.000  -658701 -668085 -688563 -641366 -651025 -702250 -707834 -653787
9.000  -629647 -622170 -624993 -626000 -676538 -714457 -732737 -805751
17.000  -831890 -799511 -724727 -665185 -632241 -643198 -646356 -626443
25.000  -663874 -711878 -683207 -665307 -672998 -639413 -619637 -659326
33.000  -687433 -679300 -669656 -649636 -644144 -625299 -663736 -673685
41.000  -696817 -778987 -811810 -758738 -718181 -722773 -701914 -652460
49.000  -624047 -621652 -642892 -638604 -619393 -624795 -628213 -652719
57.000  -691019 -742930 -756862 -749934 -694224 -607354 -569618 -597207
65.000  -602623 -575599 -584160 -621896 -646982 -668787 -742564 -782939
73.000  -768199 -684412 -634958 -617563 -633675 -601800 -583337 -611000
81.000  -651590 -636712 -599725 -604073 -593865 -603005 -580636 -568734
89.000  -573204 -588082 -555382 -563057 -587258 -596444 -593300 -586434
97.000  -631616 -700663 -738337 -755351 -689127 -589028 -561028 -613274
105.000  -630776 -663308 -665003 -620080 -609688 -624688 -597955 -566520
113.000  -621590 -665948 -667139 -608620 -595956 -595314 -559028 -554177
121.000  -558143 -560723 -554741 -577034 -562676 -614663 -672433 -647179
129.000  -591149 -573647 -585549 -557960 -548317 -581582 -588890 -560479
137.000  -540260 -545676 -572502 -569558 -564125 -608559 -615731 -605141
145.000  -624490 -613397 -624810 -597527 -562416 -550071 -563133 -573387
153.000  -579003 -571937 -567666 -558388 -539558 -551216 -574333 -557762
161.000  -557502 -556190 -571937 -584801 -599725 -600106 -594491 -561668
169.000  -551338 -549965 -523490 -539192 -532386 -546119 -570946 -543586
177.000  -536400 -560356 -537346 -517188 -523124 -512091 -531364 -536536
185.000  -589638 -592354 -604760 -642129 -633493 -591790 -583855 -551155
193.000  -526893 -505546 -505408 -515677 -542701 -543342 -550209 -535957
201.000  -512473 -518455 -517005 -512535 -525687 -520285 -507361 -512138
209.000  -527656 -554542 -551842 -521659 -557060 -544731 -523231 -513099
217.000  -512290 -519904 -540565 -538551 -528342 -505531 -512595 -495642
225.000  -529228 -549888 -543281 -521797 -533195 -561668 -551414 -499106
233.000  -498038 -512016 -544852 -549949 -525184 -542885 -534339 -484809
241.000  -479147 -508186 -514747 -495261 -499106 -513542 -530494 -509192
249.000  -481162 -485694 -501762 -509254 -519401 -543083 -566582 -560035
257.000  -563133 -540504 -499686 -505912 -495322 -496527 -499687 -504401
265.000  -484305 -482672 -490164 -530540 -559333 -531486 -489982 -485236
273.000  -478141 -514488 -511589 -510948 -491934 -483420 -484946 -489280
281.000  -484305 -487388 -478690 -485815 -472831 -469306 -473394 -532814
289.000  -538109 -500876 -484930 -487464 -493384 -482794 -496512 -533881
297.000  -547996 -577919 -606713 -580452 -552208 -508125 -481330 -499182
305.000  -525306 -507178 -495200 -495139 -492621 -476675 -473090 -467795
313.000  -468924 -476249 -494941 -525566 -519142 -490729 -513542 -513923
321.000  -498908 -470633 -451239 -463889 -472204 -517753 -558281 -566780
329.000  -554863 -547249 -551902 -562111 -543968 -518135 -495261 -473090
337.000  -470694 -491935 -490866 -492743 -492361 -500495 -527656 -495002
345.000  -453802 -467093 -502525 -500175 -501884 -534202 -522987 -497458
353.000  -462439 -451468 -483862 -503577 -544853 -535530 -500373 -474601
361.000  -465521 -483603 -497794 -540565 -546302 -466605 -440329 -504904
369.000  -488516 -448767 -449331 -449027 -470435 -476615 -551078 -604134
377.000  -536521 -473593 -449972 -460166 -461813 -468924 -442648 -459540
385.000  -469000 -476233 -457648 -472266 -480659 -487952 -480078 -469244
393.000  -486182 -472205 -457022 -438376 -453055 -465720 -477057 -476370
401.000  -454748 -446371 -447623 -460562 -476553 -489341 -521980 -559212
409.000  -552040 -494758 -478445 -542015 -541832 -489341 -458472 -456900
417.000  -455832 -453619 -449896 -457282 -445242 -477179 -498984 -480140
425.000  -460288 -455756 -460425 -483725 -443548 -435232 -451849 -444556
433.000  -457022 -460165 -474219 -481467 -468924 -457144 -447257 -458349
441.000  -450156 -452429 -457785 -454824 -441778 -437612 -460867 -493994
449.000  -503516 -474677 -466788 -463202 -459723 -432440 -436407 52491
457.000  52750 50659 51224 53879 49210 50278 49652 53620
465.000  49271 50415 52811 50354 53681 51483 51667 52811
473.000  51728 52491 52994 52933 54123 49774 52750 50415
481.000  52994 53055 54627 52491 49271 53116 52170 53879
489.000  53116 53177 51804 53559 53376 57343 52368 54703
497.000  60044 60486 64271 68116 71457 72709 73716 77195
505.000  84061 81788 86259 88334 93385 94010 97596 97093
513.000  99931 111467 106050 112657 119722 121538 127336 121675
521.000  127092 121034 115754 114488 108628 104402 97672 90424
529.000  91874 92500 94514 88975 92500 87907 90226 94270
537.000  92179 92744 88090 86198 88151 82352 89417 84809
545.000  87327 85435 84367 90867 87083 90928 86640 82475
553.000  82734 75364 67673 63828 66422 64087 60685 60486
561.000  61692 63263 65217 62638 60425 56961 56778 56900
569.000  55954 57221 55207 57404 54062 54322 54062 55130
577.000  55268 56961 56336 53818 56137 59113 59174 58167
585.000  56717 61127 59418 63447 62699 66163 68055 70191
593.000  68940 69001 66727 68802 75928 76249 77119 83482
601.000  78446 73975 83115 83680 91996 96147 90165 94834
609.000  92317 94132 98298 104280 102143 95719 106111 103959
617.000  99870 108308 112214 101319 107743 114427 109895 104966
625.000  111146 108567 109697 113603 124940 116884 117952 126649
633.000  136095 132692 133196 138994 134645 142076 142397 134264
641.000  123994 131944 137300 132005 117509 118715 113359 121477
649.000  108125 109010 104341 100373 101319 95460 99366 92683
657.000  94071 93888 95277 88532 86579 92622 90669 92561
665.000  100053 105668 87830 97856 92744 92057 89158 87586
673.000  88090 88410 83558 80094 83299 78644 78950 77821
681.000  76432 78385 73411 72526 73289 77119 71702 74418
689.000  77759 73792 80277 73289 74540 75806 73655 81971
697.000  78568 76691 81284 82795 84000 80659 94392 94453
705.000  92057 95201 109697 114229 114427 110902 124376 126024
713.000  124879 130998 136659 139696 142595 141008 134584 142778
721.000  143907 146242 132127 129991 133134 149263 150774 141008
729.000  148699 165331 173266 190539 178942 170000 187762 208682
737.000  213977 200991 202822 202944 227389 201617 184176 194247
745.000  185748 186755 182589 172762 169863 164888 167986 171633
753.000  163759 145983 143846 139055 140199 145235 151781 151781
761.000  145418 147066 148073 147371 137804 137865 151842 135851
769.000  122117 114305 111711 119020 112977 106797 95399 99046
777.000  99183 96849 94331 88151 83237 82475 88471 96223
785.000  90928 82352 86640 86884 84367 86518 88410 93247
793.000  92439 88090 87525 90791 97413 111589 117631 119905
801.000  113038 117067 137666 145738 147508 157137 160479 157961
809.000  166094 183535 186694 201251 193682 198031 196520 203952
817.000  223102 244525 258762 274464 290272 301487 309620 322590
825.000  335576 360769 393911 399328 386984 401541 421377 428442
833.000  439398 444632 454276 473548 487220 473990 462592 474631
841.000  445075 464545 462592 441229 466559 483512 470786 484824
849.000  498435 501777 509849 502662 506004 517402 501396 522697
857.000  554451 589288 578713 570077 580468 604974 609521 594140
865.000  614435 624643 584573 530632 501213 491767 470847 484962
873.000  479850 456855 436316 405188 381567 355352 320897 304005
881.000  293736 285542 273319 266208 254108 244159 237720 210574
889.000  202822 198977 210376 206851 178179 157518 158464 152224
897.000  146623 138048 120469 111528 106355 101762 98176 99244
905.000  102388 101884 111711 113801 119844 130998 141008 149584
913.000  154055 163378 184985 208300 245532 272816 305516 339482
921.000  394415 443244 481803 521126 572716 609582 639627 647440
929.000  687205 727656 784985 818371 865949 904066 936888 966628
937.000  979293 979674 979858 980056 980239 980361 980682 980621
945.000  980804 980682 981185 982131 982375 982818 982757 982955
953.000  983016 983077 983016 982513 982131 981933 981750 981368
961.000  980422 979736 979049 978469 976333 974822 972671 970916
969.000  967833 965117 961898 957686 952391 948104 940993 930724
977.000  920195 917677 902616 876783 864942 816998 755001 687205
985.000  653116 563271 510292 500587 467689 444510 415091 389379
993.000  384908 364736 317112 319951 303822 294422 258762 238727
1001.000  218127 223804 210513 209124 225940 222354 210437 208422
1009.000  206347 205401 201754 204898 211581 213153 205600 213778
1017.000  195071 194628 218890 248935 218768 249637 257755 257572
1025.000  269413 279743 306721 306843 342320 375951 371297 328831
1033.000  361974 412695 418295 444449 458625 489616 517906 526100
1041.000  527168 595284 646936 674784 750774 782467 799160 837277
1049.000  819897 785244 779690 866773 882764 874708 895628 912642
1057.000  935561 933485 939909 943190 950499 952452 952208 953841
1065.000  956542 957930 962844 968642 972930 974319 976073 977157
1073.000  977904 978530 979354 980926 981933 982253 982513 982879
1081.000  983077 983199 983138 983138 983077 982757 982192 982192
1089.000  981933 981689 981368 981506 981429 981368 981246 981185
1097.000  981124 981185 981002 981063 981063 980865 980865 980926
1105.000  980804 980804 980804 980804 980621 980178 771572 564843
1113.000  538323 474372 421576 393026 356237 327382 287495 261295
1121.000  246112 231799 218387 201113 170626 143724 123125 112275
1129.000  106797 104905 102586 102082 103456 102449 109636 105485
1137.000  109636 118074 125444 137422 150591 154177 164446 178377
1145.000  194003 219012 247486 268101 269169 265888 288258 308735
1153.000  356298 397512 384084 373632 375951 413641 449988 482124
1161.000  463843 450171 452567 484016 530189 554268 541725 519676
1169.000  525276 529884 548775 571908 574364 595025 597161 583688
1177.000  588342 592385 614114 605355 621805 621103 596856 592690
1185.000  601892 619150 615243 595345 569634 575997 578011 572350
1193.000  559929 569192 545815 559868 570016 548531 520424 497627
1201.000  499198 514885 526222 505439 482368 428061 425803 450553
1209.000  434683 411047 410421 400335 374822 363729 353902 345204
1217.000  331609 332112 314030 291401 264759 276096 277546 264057
1225.000  245731 241687 215793 197085 198031 199740 183794 175799
1233.000  160296 149645 147127 143099 132829 125642 122545 110582
1241.000  111207 104036 99488 100816 90226 81467 82673 92378
1249.000  87769 77759 80720 77378 80460 83558 81345 76432
1257.000  79331 77317 83237 84428 88715 93186 89219 93324
1265.000  102586 94071 103013 98237 112275 109895 115754 118394
1273.000  115175 133134 127718 130678 133333 128542 140566 146425
1281.000  150774 153047 152727 164888 169863 159655 167544 184740
1289.000  166536 171007 184679 181460 182085 190981 196078 178683
1297.000  187136 197024 197787 169359 168917 189593 173769 184924
1305.000  184802 198214 183413 173846 173144 161608 159288 164141
1313.000  165957 168993 158281 158846 152605 150331 143465 153368
1321.000  149080 132631 130113 136659 119340 125017 122865 126710
1329.000  122041 113221 127901 121110 114732 109758 112977 117952
1337.000  101579 110582 105912 105409 101441 100129 98039 98298
1345.000  99870 94331 96223 97978 93827 97291 100312 93568
1353.000  92683 87205 93064 103837 98039 98680 96528 91996
1361.000  91874 93125 98741 93064 100938 96787 97672 101060
1369.000  100251 94697 98603 101884 99870 103150 97474 100434
1377.000  105043 99244 106996 106172 110261 110902 113725 103776
1385.000  116182 111711 109132 117448 122682 121736 128847 120851
1393.000  127336 130556 121355 124879 137804 134523 135286 122926
1401.000  124940 131944 131746 135652 135790 138368 132570 145983
1409.000  136354 139879 145357 140825 137987 143022 137483 142214
1417.000  139940 129793 142519 141008 140321 136354 129228 133638
1425.000  145052 140001 130113 129732 130739 132829 128099 116441
1433.000  126970 129289 123430 119020 119340 121980 116060 117067
1441.000  112474 112352 107499 102082 110963 104036 97093 97093
1449.000  93125 95582 90226 86198 87647 81910 79896 78507
1457.000  75989 76615 75104 77195 75867 74601 71839 69306
1465.000  68299 75806 68741 68558 64896 71015 68558 67109
1473.000  62760 59983 63889 62943 63385 64896 60486 64469
1481.000  61127 62638 57907 60868 64774 64835 64835 62439
1489.000  66849 64209 65537 65094 65094 65842 64896 73090
1497.000  72648 75867 72968 70572 68802 76752 72083 74662
1505.000  78385 74799 71137 77378 74982 74097 72083 77561
1513.000  75669 78568 76874 75867 78568 74799 75989 74479
1521.000  74860 72022 77698 76813 79835 72526 79957 75165
1529.000  74296 74418 70695 75745 73350 73853 72343 70756
1537.000  70572 68436 71198 71961 71335 70832 70756 73350
1545.000  69504 69886 69245 67933 68879 71137 61875 61066
1553.000  62760 66987 63645 63523 60563 59235 59678 59037
1561.000  59037 55893 57663 56717 57846 56717 55634 54627
1569.000  54886 50797 54947 54001 52811 53681 49973 52750
1577.000  51865 51544 53620 52994 51728 54627 54062 53055
1585.000  52811 51163 51163 50980 50858 54627 52307 51728
1593.000  49851 54703 55634 56900 56961 56137 51041 55451
1601.000  59678 58472 57343 58670 56900 54764 59616 58533
1609.000  64148 63645 62699 63645 64469 63263 63706 66788
1617.000  66422 66926 66987 65842 67109 66987 64774 61814
1625.000  67429 67353 69184 66285 67673 68940 65217 70191
1633.000  67429 68741 70130 66926 69245 69001 68055 72281
1641.000  66346 69382 69382 69504 69687 70511 71702 68436
1649.000  70252 65400 69748 68680 66483 66346 61936 66788
1657.000  64591 62638 64972 64652 63950 63080 59800 61432
1665.000  63141 64087 59861 59678 55390 55512 53681 56717
1673.000  54566 51102 53315 52170 52491 52109 49591 52750
1681.000  47516 51224 51987 51163 49912 48767 50659 51804
1689.000  50598 47196 52170 51300 49210 51926 50278 49912
1697.000  49912 51224 49851 52170 51987 52048 49973 48966
1705.000  47821 52048 51667 53681 50858 52933 52109 52933
1713.000  50278 49088 54703 54703 56214 52170 52368 57724
1721.000  54703 52811 56397 55893 54322 54825 56961 60425
1729.000  58228 55207 59861 59540 55771 57022 58289 57907
1737.000  58289 58609 58670 61875 57465 58670 58472 61814
1745.000  59678 60303 59296 58030 61692 59418 60044 62317
1753.000  62073 60364 61249 62577 60364 62760 63706 59983
1761.000  60486 63019 62638 62882 62821 60425 57160 57221
1769.000  61127 58731 57526 59678 55634 60364 58609 57526
1777.000  55573 54764 51667 54825 52811 54886 53116 52674
1785.000  51224 50278 53559 48020 50598 51422 49652 47699
1793.000  53177 49149 47394 50034 52048 48523 49408 48767
1801.000  47257 45868 45502 46753 48706 48706 48081 47516
1809.000  49912 49027 49652 48203 50858 51041 50415 50858
1817.000  49973 51041 53620 50217 54825 53177 50858 54627
1825.000  51422 52674 53620 51361 55130 55329 53376 49210
1833.000  49530 51483 50919 54322 50278 52750 52048 49652
1841.000  50598 52368 50476 53315 54062 53681 55207 51224
1849.000  52811 50797 53315 49652 50720 49912 54001 51041
1857.000  53177 51041 54001 50278 51926 49469 49210 50415
1865.000  49973 50858 53376 50919 49912 52109 54703 50415
1873.000  50354 47394 49774 49652 48645 47821 47135 47760
1881.000  47455 47959 48767 50476 49530 50095 47013 50476
1889.000  49713 48325 46692 46448 49027 48401 45624 49149
1897.000  46814 45868 44998 45685 46311 45624 44174 48767
1905.000  46372 45624 47699 47638 47013 47959 46692 47516
1913.000  48203 46890 50034 48584 51422 48767 50919 52368
1921.000  50156 51300 51606 51667 50919 50476 50415 49774
1929.000  50278 49027 49271 47318 47196 47516 47638 49973
1937.000  48020 47577 49851 54627 52750 52994 53559 55008
1945.000  53498 53376 54184 49851 49652 51163 51667 50797
1953.000  53315 52552 52491 52429 52552 51102 50659 48020
1961.000  51483 50797 52491 50797 50858 51926 53498 50720
1969.000  48706 48462 50980 53055 52750 48645 52750 50354
1977.000  46814 47516 49027 50278 50415 47394 48844 50095
1985.000  48966 48020 47898 45746 45304 46753 46753 46890
1993.000  45944 42221 45624 42664 43228 41214 41779 0
2001.000  43350 43106 0 45181 43045 45502 41840 45746
2009.000  42786 45059 42786 44998 0 41031 42465 46128
2017.000  43915 46631 41718 46570 42786 43289 42404 44937
2025.000  45242 42542 44937 41214 45304 44235 45441 47135
2033.000  45624 47516 47516 0 46952 47196 51102 46250
2041.000  47196 48264 0 0 0 51422 50278 52170
##END=
