##TITLE= SPLICCO spectrum (File: \\phypcs\vansoelen.1$\Roaming Profile\My Documents\Senior Lab\Fourier Optics\Activity 2.3\SingleSlitD1_3_Lens.jdx)
##JCAMP-DX= 4.24
##DATE= 3.3.2016
##TIME= 12:35:2
##DATA TYPE= INFRARED SPECTRUM
##OWNER= Public Domain
##RESOLUTION= 2.0
##DELTAX= 1.00000000
##XUNITS= ARBITRARY UNITS
##YUNITS= ARBITRARY UNITS
##APPLICATION= SPLICCO
$$SHOW_VERTICAL_FLIPPED= 0
$$SHOW_HORIZONTAL_FLIPPED= 0
##XFACTOR= 1.0
##YFACTOR= 0.000001
##FIRSTX= 1.000
##LASTX= 2048.000
##NPOINTS= 2048
##FIRSTY= -0.659907
##XYDATA= (X++(Y..Y))
1.000  -659906 -666086 -688822 -643334 -649973 -704142 -710565 -654626
9.000  -628472 -622048 -626397 -624200 -675913 -714655 -736598 -804256
17.000  -833859 -800595 -723674 -664254 -634514 -645914 -645547 -627084
25.000  -665720 -714228 -681025 -664575 -674906 -636728 -615807 -660226
33.000  -691355 -680887 -665948 -643914 -644540 -627709 -664453 -675150
41.000  -698785 -779567 -816555 -761347 -720973 -718378 -701807 -651147
49.000  -621850 -619714 -646371 -636025 -619088 -624932 -629922 -654184
57.000  -691217 -740870 -757380 -752223 -692866 -603966 -570015 -595208
65.000  -602699 -580086 -583305 -621728 -647256 -670694 -743327 -783839
73.000  -765956 -684244 -629297 -615243 -632500 -605095 -582406 -609444
81.000  -653176 -633325 -599053 -601448 -596153 -601128 -580849 -566979
89.000  -574226 -586388 -555779 -562371 -586449 -594948 -593437 -587014
97.000  -631814 -701685 -738612 -755427 -686564 -587716 -558342 -610085
105.000  -631555 -665277 -662699 -617821 -606804 -629037 -599862 -563133
113.000  -621743 -662378 -665400 -607308 -597665 -595329 -556526 -553749
121.000  -563148 -559426 -551537 -573525 -566857 -614739 -669046 -645364
129.000  -589410 -572533 -583290 -559181 -548332 -581215 -589729 -561760
137.000  -538704 -543800 -571892 -568871 -563698 -609703 -616631 -604470
145.000  -622613 -612023 -623376 -596657 -559227 -551292 -565224 -572838
153.000  -578957 -566597 -565987 -558983 -538688 -551551 -573525 -556389
161.000  -555381 -555580 -567421 -584313 -598168 -598351 -593758 -561317
169.000  -550148 -548653 -526404 -541664 -530189 -544242 -570076 -541771
177.000  -537056 -557976 -539512 -515876 -523643 -509970 -532386 -536430
185.000  -587960 -591118 -605920 -640252 -632821 -591683 -582787 -551979
193.000  -528861 -507514 -505683 -516013 -544365 -540199 -549476 -542091
201.000  -513496 -518790 -521049 -509330 -524451 -516822 -507056 -513099
209.000  -529625 -554497 -551171 -519279 -559471 -545815 -521858 -513419
217.000  -512931 -518286 -540397 -536293 -531257 -505302 -511726 -494834
225.000  -528236 -548835 -546699 -521568 -531257 -564201 -553245 -499564
233.000  -500510 -512794 -541969 -546134 -524757 -541145 -532142 -483939
241.000  -478842 -505241 -513679 -495215 -498435 -513801 -531196 -508887
249.000  -479224 -484321 -501518 -509773 -518028 -539451 -562828 -559165
257.000  -560493 -536186 -499625 -502646 -493445 -495856 -497749 -502463
265.000  -479971 -481802 -487982 -530876 -557594 -530631 -489295 -483436
273.000  -479728 -512290 -514366 -509391 -492453 -485709 -484260 -486579
281.000  -485022 -483176 -479712 -485892 -473044 -467246 -472662 -534599
289.000  -537544 -498374 -483114 -485450 -491568 -476950 -497352 -534339
297.000  -545494 -574852 -602196 -577385 -553047 -503593 -484748 -499121
305.000  -523505 -503226 -494651 -491508 -490622 -475058 -474494 -464728
313.000  -469382 -473670 -494331 -527214 -521309 -489035 -512489 -513877
321.000  -495520 -469519 -451178 -463400 -472861 -516517 -559868 -564400
329.000  -551979 -549080 -551414 -560677 -541847 -516380 -493887 -473228
337.000  -470527 -486716 -487723 -493262 -488852 -499931 -527732 -494071
345.000  -455145 -464087 -504295 -497230 -502097 -534477 -519538 -497291
353.000  -463157 -453818 -482733 -504920 -545494 -536049 -497489 -476951
361.000  -463583 -483176 -498312 -539008 -547767 -465048 -440649 -500769
369.000  -489798 -448035 -446951 -446967 -466925 -479529 -554756 -604088
377.000  -540641 -470969 -450552 -459616 -462088 -466665 -440833 -457419
385.000  -467124 -477194 -456717 -473288 -480918 -487402 -475379 -469381
393.000  -484808 -470847 -456533 -441611 -453879 -463278 -473547 -470709
401.000  -451620 -443625 -446570 -460196 -474936 -486075 -521568 -553063
409.000  -550407 -492759 -477072 -539955 -540962 -485267 -456152 -455832
417.000  -450735 -452566 -447836 -452750 -443990 -473288 -495017 -476005
425.000  -458854 -455527 -457861 -479910 -442114 -433096 -445943 -440665
433.000  -453436 -455908 -471457 -478263 -464529 -454581 -447333 -453573
441.000  -446890 -452826 -456152 -449606 -436819 -435110 -461248 -489233
449.000  -500068 -472037 -462088 -456290 -460562 -430136 -434911 52597
457.000  52597 54673 52857 51209 50965 51087 55252 52719
465.000  53421 53665 52857 51407 50904 53299 54551 50583
473.000  52796 52414 55695 56061 55695 53360 53299 52033
481.000  56763 54367 51972 53803 54810 55252 54810 54993
489.000  51651 54673 54428 52857 53986 52536 53162 52216
497.000  55939 56061 51529 51651 54810 53421 55054 54428
505.000  56260 53742 55436 57328 57389 58960 61478 58457
513.000  65964 65018 66025 67780 67536 65644 68604 69993
521.000  69993 74280 72632 74204 74906 71442 72388 74464
529.000  77485 72251 74586 72129 67536 69428 68604 69672
537.000  68284 67780 70298 69932 71564 72510 74143 72190
545.000  76356 74341 80262 73579 73579 72632 68284 68925
553.000  70618 63065 67917 62561 63187 66468 66712 67475
561.000  66147 63431 60166 59967 60532 63508 63752 60730
569.000  61799 60730 65140 64637 65888 66971 62684 65827
577.000  65827 64820 67536 67917 62928 68162 67719 66330
585.000  68162 67414 68421 65140 64957 65323 67719 67536
593.000  70817 76035 69611 68863 69932 73395 69733 76234
601.000  70817 75288 76676 80445 79819 81895 86869 89402
609.000  93492 88014 87251 91218 90775 93553 94621 91538
617.000  96452 96269 110063 100801 97398 102250 96208 100617
625.000  105149 113344 107042 103379 100419 102311 106904 113084
633.000  107042 109178 109361 109498 113084 116166 108171 107484
641.000  105714 110566 113145 114351 114915 114213 110505 110063
649.000  108171 110566 112962 103196 102998 103700 106782 97138
657.000  104325 101686 100984 104386 97840 97077 99473 105455
665.000  104524 103883 102693 104768 102998 98405 101930 94682
673.000  85114 98084 92988 87449 90089 94682 94560 94254
681.000  91218 91920 89402 95063 91096 100923 93553 93049
689.000  84412 89524 91477 88578 90974 101869 90470 98664
697.000  93873 97840 99412 90028 93049 91218 103318 91721
705.000  100358 97077 100617 99092 109361 105653 101121 109300
713.000  105775 108430 99794 110887 107484 105531 109361 122285
721.000  127962 120653 121339 116609 121965 119325 121904 123476
729.000  121522 123674 131044 152651 142946 139299 143007 143770
737.000  142198 149507 153276 152971 154543 157885 161791 150133
745.000  170107 159899 155672 148302 155611 162798 172182 167833
753.000  160463 149874 161593 155046 160662 153032 157259 163424
761.000  166445 156176 155672 164492 161974 160784 158190 162233
769.000  145220 152971 152910 156679 134950 144655 142198 132738
777.000  143266 133440 115541 119508 129839 125307 101548 129594
785.000  134889 115037 105531 106538 101121 103257 87815 93614
793.000  90852 90470 90272 92988 110124 127962 133562 121080
801.000  97581 114290 123735 114351 106401 122285 116807 117875
809.000  128084 113969 121400 134447 132799 126573 129533 133821
817.000  130220 145342 147173 147676 154543 156816 160463 168902
825.000  150576 157686 166323 174395 180193 189517 190463 196749
833.000  199786 196948 206897 224093 245334 232852 230594 237766
841.000  229022 235004 261783 270405 277912 277592 265934 280430
849.000  280872 280552 296620 309224 302601 326420 331517 323903
857.000  337514 343053 352880 350179 358617 360952 352376 343312
865.000  351308 360448 363714 359365 350926 349477 357045 363408
873.000  375509 350423 336186 331090 310475 309727 302540 288624
881.000  300083 303608 292271 284840 277851 279545 270847 248355
889.000  257740 258503 250690 247470 231982 241870 227191 220126
897.000  208728 210177 199282 202044 198016 190203 178805 160143
905.000  155611 159014 160585 149629 148500 141313 126512 124986
913.000  127641 129915 122850 123613 118257 119951 133501 120897
921.000  124986 118501 130724 135515 151964 168902 175082 188250
929.000  207843 223590 262851 283634 304814 322697 335561 360128
937.000  372106 397497 435034 477576 513984 536675 568734 597283
945.000  619714 668986 703059 736202 763927 787487 840787 864667
953.000  885847 925154 947524 967559 972655 972976 973357 973479
961.000  973678 973800 973983 974181 974364 974242 974547 974486
969.000  974486 974547 974608 974929 975371 975432 975936 975997
977.000  976379 976317 976562 976699 976760 976882 976440 976440
985.000  976134 975631 974746 974486 973357 972091 971526 969573
993.000  969451 969893 965102 964156 961821 960814 957351 956404
1001.000  953566 952498 949797 946898 948348 948592 942351 939650
1009.000  939269 937315 937941 937880 938704 938261 929564 907698
1017.000  905378 879545 911863 932219 903730 926222 926802 929686
1025.000  926863 929945 931013 928053 933669 933592 933028 913756
1033.000  930128 935927 936812 938582 937254 943358 952559 946135
1041.000  938002 944304 955519 953063 953383 955519 955962 960814
1049.000  956969 955901 959060 964782 967177 968184 968825 969573
1057.000  970641 969390 970016 970199 971343 971526 972594 973479
1065.000  974608 974303 975432 975936 976379 976501 976440 976562
1073.000  976562 976699 976638 976821 976760 976882 976821 976562
1081.000  976379 976256 976256 975936 975814 975631 975432 975494
1089.000  975310 975188 975188 975051 974990 975112 974746 974929
1097.000  974868 974868 974868 974807 974746 974608 974486 974746
1105.000  974685 974547 974685 974547 974425 974486 974105 973540
1113.000  664377 605783 566475 557778 508690 470130 442420 405935
1121.000  380849 356664 328877 296559 267566 247913 221515 205584
1129.000  181383 170428 163546 143587 124681 116487 108857 100617
1137.000  96452 91859 91599 87129 90592 84489 91096 96772
1145.000  94377 100114 100679 112336 120958 120210 126131 133943
1153.000  154283 157946 168841 190524 193102 195117 202365 214969
1161.000  239597 250629 265430 261905 255664 262149 282505 305561
1169.000  297306 286594 292591 293781 312367 341985 333287 322896
1177.000  326680 326863 329823 342229 341481 353704 334554 335622
1185.000  351873 351125 355840 335362 329320 342168 340779 330830
1193.000  301029 309666 323781 321828 321629 294483 297383 293339
1201.000  299259 283390 271473 275379 283772 273304 263294 249622
1209.000  245395 237018 233676 228885 221515 213321 194872 176028
1217.000  190585 186236 171114 174761 174334 138658 153597 147997
1225.000  143709 133562 131364 131105 111131 109681 111573 122163
1233.000  114152 104585 98222 96269 91477 90913 87953 85801
1241.000  89967 87190 83039 84412 76417 76478 75654 72251
1249.000  72449 79819 91920 89585 90714 85999 97962 93308
1257.000  80704 93614 110444 95948 101808 100740 102815 100480
1265.000  106904 101182 115358 113466 110749 119768 122224 131288
1273.000  129716 144716 132372 135393 142504 140688 153475 152147
1281.000  152147 142641 140749 147356 159456 158007 145464 144151
1289.000  157503 153978 147737 149004 164492 145342 156878 158129
1297.000  169283 157625 156115 150957 155489 147798 149309 156115
1305.000  148180 150011 147295 147615 135393 130098 138475 121965
1313.000  135332 139177 129472 132494 125368 124559 129152 122972
1321.000  124986 121660 109361 109361 109437 108171 113786 105653
1329.000  118379 103761 112397 108110 112520 106843 109742 116304
1337.000  108796 106477 109300 99595 98161 89204 105210 93171
1345.000  93369 100541 98023 93736 88899 95002 109437 91721
1353.000  87312 97459 96208 103135 100038 106904 98664 95185
1361.000  99534 93675 89402 92225 97077 93232 97077 100358
1369.000  105149 102998 100114 105531 108934 111512 118883 122606
1377.000  123353 118120 115098 120576 126192 113649 115663 115983
1385.000  122972 122667 127962 126878 123613 120576 133745 141695
1393.000  131670 132738 129152 128526 139925 122163 124620 140810
1401.000  125062 135332 130098 126375 134248 132799 120576 123292
1409.000  123552 119264 120714 122026 124742 125123 120653 114213
1417.000  122789 118318 111451 109620 105775 113206 111894 108430
1425.000  111573 108613 106599 100358 95826 96574 105333 92545
1433.000  94056 92164 92423 94499 98786 90211 88761 87449
1441.000  85923 83970 81589 80323 75730 80582 80704 76920
1449.000  79056 73777 77927 79758 80384 76295 79438 75288
1457.000  74021 72388 74464 71381 68604 68787 68665 72449
1465.000  65018 63935 71122 65705 66529 63874 63126 68039
1473.000  67841 65018 64011 66392 64576 58579 63813 66086
1481.000  62928 61860 60028 64957 62424 68986 64515 65522
1489.000  63935 60410 63309 63508 65766 65018 67093 65018
1497.000  65827 61112 62424 61676 65888 65323 68863 65323
1505.000  65766 67597 68665 67215 66025 64515 64255 66208
1513.000  67414 65827 65964 64011 63813 72388 67841 65018
1521.000  69047 73517 71686 68345 70878 66910 69611 67597
1529.000  69169 69428 69108 69550 66971 71686 66529 68925
1537.000  66025 67841 68223 71747 69367 71244 67093 68925
1545.000  62684 65522 63630 61982 63187 61676 64759 62561
1553.000  58655 59601 58152 55558 58655 56260 55817 58014
1561.000  59662 55054 53040 52216 55878 52216 52353 53360
1569.000  50705 50583 51285 53665 49134 49393 51850 52292
1577.000  51590 49698 54932 54428 52796 54551 53162 54749
1585.000  54673 51209 53421 56260 55313 58213 55252 55878
1593.000  57953 56260 58152 58075 58716 59464 59464 59281
1601.000  56824 60471 57709 58838 59662 57831 59281 59220
1609.000  55878 58838 62424 61417 63691 62302 59845 65018
1617.000  61051 61860 63874 59464 63004 63691 63187 64011
1625.000  65201 66330 62928 62928 65827 60852 64576 62928
1633.000  65522 63508 63630 66834 64576 66392 61860 62684
1641.000  63691 62180 62485 61615 61921 63691 60975 61356
1649.000  60914 61982 63431 57831 60791 56565 60669 59601
1657.000  54810 56946 57511 57267 57267 55252 57831 57648
1665.000  55817 56702 53742 53238 53101 50965 52719 51346
1673.000  51712 49393 49393 48386 48630 49958 49958 48752
1681.000  50904 50644 48249 48065 50400 49011 48691 47562
1689.000  51209 50019 52094 50141 47180 50263 50141 51209
1697.000  51209 50843 53299 49134 52719 50522 51651 52033
1705.000  51590 51346 51972 51911 48889 51850 50705 52979
1713.000  49134 51209 50400 51850 53742 53162 56260 52597
1721.000  50141 50141 51789 52536 54108 54169 53864 53742
1729.000  56061 52796 54108 54245 51850 52216 56061 53101
1737.000  53864 57328 53604 52857 52536 53665 51972 53162
1745.000  54489 52857 51529 52353 53803 48950 50583 53040
1753.000  51468 53299 53421 53803 56702 52979 52857 53543
1761.000  52353 52796 50202 53421 48249 50522 50461 51087
1769.000  50965 51468 50202 50202 51285 50965 52033 48630
1777.000  49637 47623 49759 48187 49958 49759 45929 47882
1785.000  47379 46616 47180 46677 43717 46677 45166 48630
1793.000  48004 46860 45853 45990 44846 46051 46860 47440
1801.000  46799 45609 44098 46295 48889 47302 49393 47440
1809.000  48691 47241 43595 48249 46295 48691 46494 51148
1817.000  48386 48569 47501 50019 49195 47623 47302 47501
1825.000  49576 49332 46997 48691 47241 50080 49256 51026
1833.000  50644 50400 48691 49073 49011 47882 49759 47180
1841.000  50202 48813 48752 49256 50904 49515 50400 49134
1849.000  48813 46295 47806 47684 47623 47806 51407 49256
1857.000  47943 46173 48004 47302 47562 47241 46173 47440
1865.000  48447 45166 44724 48752 47302 47623 46295 46173
1873.000  48004 46738 47180 45227 45349 47943 44846 45670
1881.000  46555 43335 45227 46173 44983 45609 42710 44907
1889.000  46356 44785 44480 43335 46173 47119 48447 44907
1897.000  47943 44846 44098 45105 45227 45929 43274 45166
1905.000  45670 44785 46677 44220 44098 46051 43335 45548
1913.000  45349 44220 47501 45792 44541 44785 46936 44724
1921.000  46173 45288 47943 45990 41947 46051 47684 47058
1929.000  46555 46494 45288 46738 48187 47882 46936 42526
1937.000  49195 43717 42587 46860 45853 46234 45731 46616
1945.000  52216 48386 49759 49897 48630 49958 47623 49515
1953.000  52857 48889 50644 47302 48813 47623 48126 46295
1961.000  48187 48752 47882 44342 47058 49576 48508 46173
1969.000  47623 49759 45426 46051 48752 43976 47623 45426
1977.000  47562 42954 42450 44983 46112 47058 47058 43976
1985.000  44541 42206 42648 47745 45044 43900 42450 44602
1993.000  44098 41580 45548 43976 43152 42710 44281 0
2001.000  43595 42710 0 46616 40131 43091 42206 40878
2009.000  43656 42084 41321 45105 0 43839 41519 41947
2017.000  41443 42206 43533 44480 43976 43091 40314 45929
2025.000  44281 41519 42267 40634 42648 39246 42954 44480
2033.000  44541 43839 43778 0 41824 42267 40695 46936
2041.000  44220 43656 0 0 0 42771 45227 46173
##END=
